Far field
"Plane Wave Phi"[deg]	"1Blade_SEP_lam8_Carbide [dBsm]"	"1Blade_SEP_lam16_Carbide [dBsm]"	"1Blade_SEP_lam20_Carbide [dBsm]"	"1Blade_SEP_lam25_Carbide [dBsm]"	"1Blade_SEP_lam32_Carbide [dBsm]"	"1Blade_SEP_lam40_Carbide [dBsm]"	"1Blade_SEP_lam64_Carbide [dBsm]"	"1Blade_SEP_lam80_Carbide [dBsm]"	"1Blade_SEP_lam120_Carbide [dBsm]"	
-1.80000000E+02	-4.64194954E+01	-4.62166741E+01	-4.63109024E+01	-4.62846013E+01	-4.62342269E+01	-4.63040219E+01	-4.61684697E+01	-4.61183213E+01	-4.60514802E+01	
-1.79000000E+02	-4.63645031E+01	-4.61687489E+01	-4.62523039E+01	-4.62389722E+01	-4.61951343E+01	-4.62606514E+01	-4.61169128E+01	-4.60620125E+01	-4.59895294E+01	
-1.78000000E+02	-4.63142448E+01	-4.61270488E+01	-4.61991585E+01	-4.61991935E+01	-4.61621330E+01	-4.62234130E+01	-4.60713703E+01	-4.60119612E+01	-4.59336670E+01	
-1.77000000E+02	-4.62691864E+01	-4.60921656E+01	-4.61518752E+01	-4.61658339E+01	-4.61359090E+01	-4.61929053E+01	-4.60326365E+01	-4.59686789E+01	-4.58846996E+01	
-1.76000000E+02	-4.62299212E+01	-4.60646975E+01	-4.61110304E+01	-4.61394596E+01	-4.61170650E+01	-4.61698763E+01	-4.60015600E+01	-4.59329596E+01	-4.58432152E+01	
-1.75000000E+02	-4.61972147E+01	-4.60455243E+01	-4.60773697E+01	-4.61208139E+01	-4.61064370E+01	-4.61550666E+01	-4.59784994E+01	-4.59053038E+01	-4.58098816E+01	
-1.74000000E+02	-4.61719323E+01	-4.60353857E+01	-4.60516466E+01	-4.61107705E+01	-4.61048480E+01	-4.61493125E+01	-4.59645811E+01	-4.58866617E+01	-4.57855993E+01	
-1.73000000E+02	-4.61551174E+01	-4.60352941E+01	-4.60349306E+01	-4.61102560E+01	-4.61133326E+01	-4.61536539E+01	-4.59608077E+01	-4.58782021E+01	-4.57710323E+01	
-1.72000000E+02	-4.61479250E+01	-4.60462072E+01	-4.60282266E+01	-4.61204009E+01	-4.61329276E+01	-4.61690642E+01	-4.59680566E+01	-4.58803102E+01	-4.57671767E+01	
-1.71000000E+02	-4.61516595E+01	-4.60691976E+01	-4.60327201E+01	-4.61424253E+01	-4.61648160E+01	-4.61966113E+01	-4.59868520E+01	-4.58942863E+01	-4.57749717E+01	
-1.70000000E+02	-4.61677140E+01	-4.61053994E+01	-4.60497667E+01	-4.61775821E+01	-4.62102848E+01	-4.62376501E+01	-4.60187470E+01	-4.59212185E+01	-4.57953359E+01	
-1.69000000E+02	-4.61976254E+01	-4.61560349E+01	-4.60807802E+01	-4.62273208E+01	-4.62706743E+01	-4.62933935E+01	-4.60654422E+01	-4.59621554E+01	-4.58296130E+01	
-1.68000000E+02	-4.62430245E+01	-4.62223578E+01	-4.61272510E+01	-4.62931377E+01	-4.63473701E+01	-4.63652003E+01	-4.61270941E+01	-4.60183174E+01	-4.58786846E+01	
-1.67000000E+02	-4.63056012E+01	-4.63056285E+01	-4.61908038E+01	-4.63766312E+01	-4.64419090E+01	-4.64544933E+01	-4.62056056E+01	-4.60907745E+01	-4.59436827E+01	
-1.66000000E+02	-4.63871535E+01	-4.64072282E+01	-4.62729903E+01	-4.64793924E+01	-4.65557872E+01	-4.65626155E+01	-4.63020846E+01	-4.61808976E+01	-4.60258596E+01	
-1.65000000E+02	-4.64895266E+01	-4.65283346E+01	-4.63755791E+01	-4.66031679E+01	-4.66905370E+01	-4.66910171E+01	-4.64174791E+01	-4.62895694E+01	-4.61260670E+01	
-1.64000000E+02	-4.66146016E+01	-4.66703298E+01	-4.65003244E+01	-4.67495685E+01	-4.68476386E+01	-4.68413285E+01	-4.65533443E+01	-4.64178863E+01	-4.62455596E+01	
-1.63000000E+02	-4.67642593E+01	-4.68341773E+01	-4.66488049E+01	-4.69203092E+01	-4.70286669E+01	-4.70144664E+01	-4.67105716E+01	-4.65672923E+01	-4.63850233E+01	
-1.62000000E+02	-4.69404248E+01	-4.70209321E+01	-4.68227703E+01	-4.71169574E+01	-4.72347525E+01	-4.72118269E+01	-4.68901367E+01	-4.67382010E+01	-4.65454776E+01	
-1.61000000E+02	-4.71449159E+01	-4.72314525E+01	-4.70238438E+01	-4.73410441E+01	-4.74672520E+01	-4.74343273E+01	-4.70927777E+01	-4.69312747E+01	-4.67273754E+01	
-1.60000000E+02	-4.73794538E+01	-4.74661129E+01	-4.72534084E+01	-4.75938256E+01	-4.77267891E+01	-4.76827597E+01	-4.73185033E+01	-4.71469682E+01	-4.69309971E+01	
-1.59000000E+02	-4.76456078E+01	-4.77250252E+01	-4.75127691E+01	-4.78763035E+01	-4.80139474E+01	-4.79569964E+01	-4.75680331E+01	-4.73853620E+01	-4.71562011E+01	
-1.58000000E+02	-4.79446194E+01	-4.80075568E+01	-4.78027176E+01	-4.81889444E+01	-4.83285558E+01	-4.82568771E+01	-4.78399900E+01	-4.76453251E+01	-4.74022509E+01	
-1.57000000E+02	-4.82773086E+01	-4.83123931E+01	-4.81237628E+01	-4.85316501E+01	-4.86694688E+01	-4.85814747E+01	-4.81333658E+01	-4.79263657E+01	-4.76681161E+01	
-1.56000000E+02	-4.86438022E+01	-4.86371948E+01	-4.84754721E+01	-4.89033137E+01	-4.90345649E+01	-4.89277180E+01	-4.84461394E+01	-4.82256214E+01	-4.79518811E+01	
-1.55000000E+02	-4.90432949E+01	-4.89784028E+01	-4.88567497E+01	-4.93016365E+01	-4.94199991E+01	-4.92923411E+01	-4.87745871E+01	-4.85406797E+01	-4.82501990E+01	
-1.54000000E+02	-4.94736144E+01	-4.93309676E+01	-4.92650358E+01	-4.97225449E+01	-4.98203234E+01	-4.96700280E+01	-4.91140412E+01	-4.88666584E+01	-4.85593749E+01	
-1.53000000E+02	-4.99306695E+01	-4.96880169E+01	-4.96957664E+01	-5.01597643E+01	-5.02275276E+01	-5.00528089E+01	-4.94588543E+01	-4.91973408E+01	-4.88738298E+01	
-1.52000000E+02	-5.04079505E+01	-5.00409591E+01	-5.01425815E+01	-5.06043059E+01	-5.06309705E+01	-5.04311689E+01	-4.97993515E+01	-4.95256695E+01	-4.91873165E+01	
-1.51000000E+02	-5.08957650E+01	-5.03792929E+01	-5.05961852E+01	-5.10440749E+01	-5.10173509E+01	-5.07930248E+01	-5.01283525E+01	-4.98439899E+01	-4.94922875E+01	
-1.50000000E+02	-5.13806878E+01	-5.06915136E+01	-5.10441547E+01	-5.14639710E+01	-5.13714943E+01	-5.11246253E+01	-5.04345723E+01	-5.01416051E+01	-4.97799383E+01	
-1.49000000E+02	-5.18453950E+01	-5.09658314E+01	-5.14714105E+01	-5.18465124E+01	-5.16771009E+01	-5.14121380E+01	-5.07060544E+01	-5.04088893E+01	-5.00416028E+01	
-1.48000000E+02	-5.22696297E+01	-5.11915169E+01	-5.18607814E+01	-5.21734440E+01	-5.19197025E+01	-5.16433611E+01	-5.09347993E+01	-5.06372021E+01	-5.02691278E+01	
-1.47000000E+02	-5.26319176E+01	-5.13601937E+01	-5.21945374E+01	-5.24287154E+01	-5.20882434E+01	-5.18081477E+01	-5.11109740E+01	-5.08187948E+01	-5.04553719E+01	
-1.46000000E+02	-5.29132793E+01	-5.14681677E+01	-5.24575371E+01	-5.26010813E+01	-5.21783062E+01	-5.19022127E+01	-5.12326439E+01	-5.09492603E+01	-5.05965999E+01	
-1.45000000E+02	-5.31012339E+01	-5.15162529E+01	-5.26400066E+01	-5.26872557E+01	-5.21925936E+01	-5.19286660E+01	-5.12979216E+01	-5.10280319E+01	-5.06911764E+01	
-1.44000000E+02	-5.31931366E+01	-5.15099847E+01	-5.27394612E+01	-5.26927617E+01	-5.21405534E+01	-5.18941210E+01	-5.13118932E+01	-5.10592369E+01	-5.07414232E+01	
-1.43000000E+02	-5.31969268E+01	-5.14585291E+01	-5.27624312E+01	-5.26302265E+01	-5.20364006E+01	-5.18110880E+01	-5.12819340E+01	-5.10474621E+01	-5.07522183E+01	
-1.42000000E+02	-5.31293649E+01	-5.13733241E+01	-5.27215561E+01	-5.25167102E+01	-5.18963707E+01	-5.16928630E+01	-5.12185603E+01	-5.10030404E+01	-5.07306842E+01	
-1.41000000E+02	-5.30118089E+01	-5.12668633E+01	-5.26340520E+01	-5.23708850E+01	-5.17371031E+01	-5.15545243E+01	-5.11323382E+01	-5.09343804E+01	-5.06860134E+01	
-1.40000000E+02	-5.28666594E+01	-5.11504825E+01	-5.25180030E+01	-5.22106259E+01	-5.15729023E+01	-5.14091939E+01	-5.10345804E+01	-5.08530578E+01	-5.06273705E+01	
-1.39000000E+02	-5.27141761E+01	-5.10348952E+01	-5.23908241E+01	-5.20509357E+01	-5.14157712E+01	-5.12684241E+01	-5.09346894E+01	-5.07680431E+01	-5.05634961E+01	
-1.38000000E+02	-5.25711655E+01	-5.09292574E+01	-5.22670125E+01	-5.19042643E+01	-5.12758337E+01	-5.11406565E+01	-5.08418359E+01	-5.06884303E+01	-5.05033093E+01	
-1.37000000E+02	-5.24506795E+01	-5.08414324E+01	-5.21587191E+01	-5.17800585E+01	-5.11603439E+01	-5.10344876E+01	-5.07645730E+01	-5.06226344E+01	-5.04548999E+01	
-1.36000000E+02	-5.23624340E+01	-5.07782509E+01	-5.20756087E+01	-5.16856433E+01	-5.10758064E+01	-5.09561824E+01	-5.07103326E+01	-5.05777640E+01	-5.04255542E+01	
-1.35000000E+02	-5.23137447E+01	-5.07461334E+01	-5.20250482E+01	-5.16269725E+01	-5.10272186E+01	-5.09114053E+01	-5.06841178E+01	-5.05613154E+01	-5.04231397E+01	
-1.34000000E+02	-5.23102372E+01	-5.07513676E+01	-5.20139565E+01	-5.16094762E+01	-5.10198833E+01	-5.09057052E+01	-5.06953588E+01	-5.05800094E+01	-5.04553156E+01	
-1.33000000E+02	-5.23568575E+01	-5.08012950E+01	-5.20479775E+01	-5.16383107E+01	-5.10592390E+01	-5.09458736E+01	-5.07505447E+01	-5.06426509E+01	-5.05309952E+01	
-1.32000000E+02	-5.24585099E+01	-5.09036352E+01	-5.21337804E+01	-5.17196813E+01	-5.11514572E+01	-5.10386561E+01	-5.08576433E+01	-5.07573778E+01	-5.06585952E+01	
-1.31000000E+02	-5.26208916E+01	-5.10681107E+01	-5.22788749E+01	-5.18607686E+01	-5.13048199E+01	-5.11928586E+01	-5.10281244E+01	-5.09355140E+01	-5.08499262E+01	
-1.30000000E+02	-5.28512658E+01	-5.13064334E+01	-5.24921522E+01	-5.20710454E+01	-5.15289685E+01	-5.14195669E+01	-5.12729065E+01	-5.11887800E+01	-5.11171551E+01	
-1.29000000E+02	-5.31588905E+01	-5.16328930E+01	-5.27852788E+01	-5.23622153E+01	-5.18369406E+01	-5.17318871E+01	-5.16083801E+01	-5.15340465E+01	-5.14770335E+01	
-1.28000000E+02	-5.35562322E+01	-5.20659437E+01	-5.31728102E+01	-5.27497369E+01	-5.22451772E+01	-5.21474455E+01	-5.20520156E+01	-5.19894742E+01	-5.19490041E+01	
-1.27000000E+02	-5.40598863E+01	-5.26292967E+01	-5.36738193E+01	-5.32534499E+01	-5.27748452E+01	-5.26887671E+01	-5.26293199E+01	-5.25807099E+01	-5.25597357E+01	
-1.26000000E+02	-5.46916475E+01	-5.33548980E+01	-5.43130510E+01	-5.38997355E+01	-5.34547918E+01	-5.33856657E+01	-5.33732291E+01	-5.33418058E+01	-5.33437717E+01	
-1.25000000E+02	-5.54814489E+01	-5.42872144E+01	-5.51243274E+01	-5.47247994E+01	-5.43245077E+01	-5.42802413E+01	-5.43298612E+01	-5.43205607E+01	-5.43517693E+01	
-1.24000000E+02	-5.64698891E+01	-5.54922189E+01	-5.61531927E+01	-5.57796338E+01	-5.54411305E+01	-5.54334879E+01	-5.55684434E+01	-5.55877069E+01	-5.56574027E+01	
-1.23000000E+02	-5.77145259E+01	-5.70734207E+01	-5.74644131E+01	-5.71399425E+01	-5.68933793E+01	-5.69399504E+01	-5.71985099E+01	-5.72575115E+01	-5.73814046E+01	
-1.22000000E+02	-5.92961546E+01	-5.92072553E+01	-5.91478112E+01	-5.89223545E+01	-5.88269249E+01	-5.89589264E+01	-5.94075720E+01	-5.95262794E+01	-5.97319840E+01	
-1.21000000E+02	-6.13190199E+01	-6.22080900E+01	-6.13073136E+01	-6.13069735E+01	-6.14981682E+01	-6.17710196E+01	-6.25344830E+01	-6.27379250E+01	-6.30709055E+01	
-1.20000000E+02	-6.38352789E+01	-6.64395535E+01	-6.39009893E+01	-6.44701665E+01	-6.52995323E+01	-6.57671514E+01	-6.68923632E+01	-6.70981406E+01	-6.74527116E+01	
-1.19000000E+02	-6.62888645E+01	-6.87704900E+01	-6.58363562E+01	-6.74473669E+01	-6.91213419E+01	-6.90323051E+01	-6.84764076E+01	-6.79694377E+01	-6.74472112E+01	
-1.18000000E+02	-6.63671234E+01	-6.43962619E+01	-6.47248454E+01	-6.60493649E+01	-6.63303798E+01	-6.53875590E+01	-6.38212374E+01	-6.32788887E+01	-6.26985405E+01	
-1.17000000E+02	-6.37498061E+01	-6.02290550E+01	-6.17891286E+01	-6.22792444E+01	-6.18310172E+01	-6.10337693E+01	-5.97833440E+01	-5.93786597E+01	-5.89342367E+01	
-1.16000000E+02	-6.08667448E+01	-5.72120978E+01	-5.90241172E+01	-5.91158851E+01	-5.85198038E+01	-5.78647934E+01	-5.68567659E+01	-5.65366920E+01	-5.61804792E+01	
-1.15000000E+02	-5.84659287E+01	-5.49338179E+01	-5.67635325E+01	-5.66722782E+01	-5.60558494E+01	-5.54900225E+01	-5.46364115E+01	-5.43683599E+01	-5.40676102E+01	
-1.14000000E+02	-5.65252655E+01	-5.31374704E+01	-5.49275689E+01	-5.47423570E+01	-5.41366025E+01	-5.36298897E+01	-5.28785547E+01	-5.26457357E+01	-5.23828913E+01	
-1.13000000E+02	-5.49397993E+01	-5.16779305E+01	-5.34163825E+01	-5.31774583E+01	-5.25909621E+01	-5.21259553E+01	-5.14463412E+01	-5.12388384E+01	-5.10029011E+01	
-1.12000000E+02	-5.36249797E+01	-5.04673012E+01	-5.21544253E+01	-5.18826684E+01	-5.13173445E+01	-5.08831506E+01	-5.02556897E+01	-5.00675576E+01	-4.98517708E+01	
-1.11000000E+02	-5.25200166E+01	-4.94484930E+01	-5.10881744E+01	-5.07948612E+01	-5.02505723E+01	-4.98406037E+01	-4.92524739E+01	-4.90790520E+01	-4.88782656E+01	
-1.10000000E+02	-5.15809024E+01	-4.85815928E+01	-5.01783342E+01	-4.98701760E+01	-4.93461662E+01	-4.89558409E+01	-4.83969886E+01	-4.82355613E+01	-4.80466915E+01	
-1.09000000E+02	-5.07750131E+01	-4.78378337E+01	-4.93958691E+01	-4.90770535E+01	-4.85723114E+01	-4.81983698E+01	-4.76630818E+01	-4.75102383E+01	-4.73307150E+01	
-1.08000000E+02	-5.00776855E+01	-4.71956425E+01	-4.87188026E+01	-4.83919279E+01	-4.79050954E+01	-4.75456272E+01	-4.70277263E+01	-4.68829370E+01	-4.67107947E+01	
-1.07000000E+02	-4.94703782E+01	-4.66391783E+01	-4.81304700E+01	-4.77972197E+01	-4.73271848E+01	-4.69807221E+01	-4.64767117E+01	-4.63382095E+01	-4.61723883E+01	
-1.06000000E+02	-4.89395964E+01	-4.61568977E+01	-4.76189468E+01	-4.72803819E+01	-4.68258249E+01	-4.64914537E+01	-4.59993094E+01	-4.58657550E+01	-4.57053328E+01	
-1.05000000E+02	-4.84764245E+01	-4.57415001E+01	-4.71759894E+01	-4.68330109E+01	-4.63926719E+01	-4.60697073E+01	-4.55878683E+01	-4.54586285E+01	-4.53030506E+01	
-1.04000000E+02	-4.80761842E+01	-4.53890801E+01	-4.67974552E+01	-4.64504930E+01	-4.60231906E+01	-4.57111521E+01	-4.52391028E+01	-4.51136519E+01	-4.49625960E+01	
-1.03000000E+02	-4.77379837E+01	-4.50992396E+01	-4.64822172E+01	-4.61318920E+01	-4.57163654E+01	-4.54148931E+01	-4.49522525E+01	-4.48306978E+01	-4.46841681E+01	
-1.02000000E+02	-4.74645521E+01	-4.48743889E+01	-4.62326426E+01	-4.58791497E+01	-4.54743764E+01	-4.51831664E+01	-4.47311888E+01	-4.46126715E+01	-4.44708981E+01	
-1.01000000E+02	-4.72614637E+01	-4.47197189E+01	-4.60534804E+01	-4.56972086E+01	-4.53021937E+01	-4.50207387E+01	-4.45803222E+01	-4.44652697E+01	-4.43283227E+01	
-1.00000000E+02	-4.71369651E+01	-4.46425606E+01	-4.59521612E+01	-4.55932187E+01	-4.52069990E+01	-4.49350061E+01	-4.45073608E+01	-4.43956868E+01	-4.42641273E+01	
-9.90000000E+01	-4.71014741E+01	-4.46524105E+01	-4.59380041E+01	-4.55764890E+01	-4.51983740E+01	-4.49353812E+01	-4.45216709E+01	-4.44141787E+01	-4.42879510E+01	
-9.80000000E+01	-4.71676426E+01	-4.47608823E+01	-4.60226125E+01	-4.56584344E+01	-4.52877971E+01	-4.50332769E+01	-4.46353630E+01	-4.45320638E+01	-4.44117149E+01	
-9.70000000E+01	-4.73502984E+01	-4.49817421E+01	-4.62197405E+01	-4.58526407E+01	-4.54890661E+01	-4.52426387E+01	-4.48618049E+01	-4.47633337E+01	-4.46495165E+01	
-9.60000000E+01	-4.76672937E+01	-4.53318711E+01	-4.65460505E+01	-4.61755857E+01	-4.58187978E+01	-4.55800498E+01	-4.52184426E+01	-4.51251046E+01	-4.50184738E+01	
-9.50000000E+01	-4.81406754E+01	-4.58321522E+01	-4.70222279E+01	-4.66476476E+01	-4.62975989E+01	-4.60662714E+01	-4.57261055E+01	-4.56389574E+01	-4.55403156E+01	
-9.40000000E+01	-4.87988899E+01	-4.65098445E+01	-4.76748836E+01	-4.72951186E+01	-4.69521460E+01	-4.67279429E+01	-4.64121988E+01	-4.63322610E+01	-4.62429357E+01	
-9.30000000E+01	-4.96805406E+01	-4.74023253E+01	-4.85401900E+01	-4.81537212E+01	-4.78185130E+01	-4.76017009E+01	-4.73147550E+01	-4.72436477E+01	-4.71654684E+01	
-9.20000000E+01	-5.08411855E+01	-4.85637533E+01	-4.96699473E+01	-4.92746285E+01	-4.89488447E+01	-4.87400908E+01	-4.84888846E+01	-4.84288928E+01	-4.83647666E+01	
-9.10000000E+01	-5.23660589E+01	-5.00790012E+01	-5.11437668E+01	-5.07363791E+01	-5.04237338E+01	-5.02248556E+01	-5.00214014E+01	-4.99765216E+01	-4.99316367E+01	
-9.00000000E+01	-5.43953052E+01	-5.20933758E+01	-5.30938673E+01	-5.26699093E+01	-5.23787347E+01	-5.21940419E+01	-5.20604725E+01	-5.20394374E+01	-5.20237418E+01	
-8.90000000E+01	-5.71729440E+01	-5.48885433E+01	-5.57620116E+01	-5.53157194E+01	-5.50682786E+01	-5.49103047E+01	-5.49004433E+01	-5.49206940E+01	-5.49574051E+01	
-8.80000000E+01	-6.10646702E+01	-5.91090587E+01	-5.96233458E+01	-5.91607848E+01	-5.90374320E+01	-5.89511433E+01	-5.92193643E+01	-5.93407814E+01	-5.95017153E+01	
-8.70000000E+01	-6.50760902E+01	-6.61017051E+01	-6.50313677E+01	-6.47700608E+01	-6.51777370E+01	-6.54046633E+01	-6.64828972E+01	-6.69291967E+01	-6.74809818E+01	
-8.60000000E+01	-6.28647021E+01	-6.48936661E+01	-6.46004534E+01	-6.48186356E+01	-6.50930414E+01	-6.51735105E+01	-6.46477141E+01	-6.44584595E+01	-6.41675971E+01	
-8.50000000E+01	-5.86993974E+01	-5.85567803E+01	-5.94501478E+01	-5.94004369E+01	-5.91801519E+01	-5.89997171E+01	-5.83068656E+01	-5.80927648E+01	-5.78243975E+01	
-8.40000000E+01	-5.56973173E+01	-5.48169561E+01	-5.59265208E+01	-5.57532834E+01	-5.54377041E+01	-5.52172060E+01	-5.46059229E+01	-5.44221221E+01	-5.41966336E+01	
-8.30000000E+01	-5.35773964E+01	-5.23570460E+01	-5.35390134E+01	-5.33044586E+01	-5.29579290E+01	-5.27255794E+01	-5.21701535E+01	-5.20048185E+01	-5.18051438E+01	
-8.20000000E+01	-5.20451148E+01	-5.06216197E+01	-5.18449731E+01	-5.15718717E+01	-5.12092810E+01	-5.09700579E+01	-5.04490529E+01	-5.02961446E+01	-5.01117168E+01	
-8.10000000E+01	-5.09318857E+01	-4.93609684E+01	-5.06198383E+01	-5.03178901E+01	-4.99427982E+01	-4.96976665E+01	-4.91973491E+01	-4.90522984E+01	-4.88776528E+01	
-8.00000000E+01	-5.01388271E+01	-4.84442755E+01	-4.97404350E+01	-4.94138348E+01	-4.90268962E+01	-4.87750743E+01	-4.82858696E+01	-4.81462029E+01	-4.79772932E+01	
-7.90000000E+01	-4.96038464E+01	-4.77939527E+01	-4.91329079E+01	-4.87834539E+01	-4.83833979E+01	-4.81238690E+01	-4.76386272E+01	-4.75015335E+01	-4.73357128E+01	
-7.80000000E+01	-4.92851743E+01	-4.73602771E+01	-4.87491085E+01	-4.83773485E+01	-4.79620968E+01	-4.76934658E+01	-4.72048738E+01	-4.70695464E+01	-4.69042584E+01	
-7.70000000E+01	-4.91525399E+01	-4.71086455E+01	-4.85558248E+01	-4.81614238E+01	-4.77285649E+01	-4.74492581E+01	-4.69520091E+01	-4.68155612E+01	-4.66491911E+01	
-7.60000000E+01	-4.91820223E+01	-4.70137476E+01	-4.85278488E+01	-4.81106393E+01	-4.76573363E+01	-4.73658432E+01	-4.68526265E+01	-4.67147756E+01	-4.65450493E+01	
-7.50000000E+01	-4.93524186E+01	-4.70558043E+01	-4.86454302E+01	-4.82053843E+01	-4.77285497E+01	-4.74232923E+01	-4.68885997E+01	-4.67476438E+01	-4.65727970E+01	
-7.40000000E+01	-4.96427284E+01	-4.72189162E+01	-4.88910496E+01	-4.84292064E+01	-4.79259135E+01	-4.76057792E+01	-4.70431767E+01	-4.68976645E+01	-4.67162860E+01	
-7.30000000E+01	-5.00301995E+01	-4.74900918E+01	-4.92487058E+01	-4.87678062E+01	-4.82356610E+01	-4.78999263E+01	-4.73038402E+01	-4.71524963E+01	-4.69629802E+01	
-7.20000000E+01	-5.04885705E+01	-4.78587233E+01	-4.97027497E+01	-4.92084402E+01	-4.86459809E+01	-4.82945750E+01	-4.76609596E+01	-4.75022495E+01	-4.73034897E+01	
-7.10000000E+01	-5.09879697E+01	-4.83176286E+01	-5.02379046E+01	-4.97398078E+01	-4.91471640E+01	-4.87816327E+01	-4.81064971E+01	-4.79398870E+01	-4.77311385E+01	
-7.00000000E+01	-5.14961013E+01	-4.88630763E+01	-5.08398063E+01	-5.03528064E+01	-4.97331112E+01	-4.93559025E+01	-4.86381448E+01	-4.84625119E+01	-4.82442080E+01	
-6.90000000E+01	-5.19815801E+01	-4.94964649E+01	-5.14954636E+01	-5.10413621E+01	-5.04013364E+01	-5.00173452E+01	-4.92579891E+01	-4.90735647E+01	-4.88459730E+01	
-6.80000000E+01	-5.24191565E+01	-5.02254233E+01	-5.21944471E+01	-5.18032405E+01	-5.11550392E+01	-5.07709826E+01	-4.99748856E+01	-4.97821855E+01	-4.95466210E+01	
-6.70000000E+01	-5.27938055E+01	-5.10641260E+01	-5.29283338E+01	-5.26397207E+01	-5.20029077E+01	-5.16286034E+01	-5.08041537E+01	-5.06038146E+01	-5.03630466E+01	
-6.60000000E+01	-5.31012287E+01	-5.20326934E+01	-5.36867216E+01	-5.35518842E+01	-5.29571773E+01	-5.26063901E+01	-5.17676473E+01	-5.15619537E+01	-5.13195080E+01	
-6.50000000E+01	-5.33432340E+01	-5.31506514E+01	-5.44482017E+01	-5.45297968E+01	-5.40255376E+01	-5.37175386E+01	-5.28880224E+01	-5.26819450E+01	-5.24426514E+01	
-6.40000000E+01	-5.35192417E+01	-5.44186145E+01	-5.51621240E+01	-5.55265719E+01	-5.51879227E+01	-5.49504543E+01	-5.41707989E+01	-5.39734900E+01	-5.37472761E+01	
-6.30000000E+01	-5.36178719E+01	-5.57607411E+01	-5.57264875E+01	-5.64121783E+01	-5.63405847E+01	-5.62077495E+01	-5.55514981E+01	-5.53792483E+01	-5.51855854E+01	
-6.20000000E+01	-5.36129780E+01	-5.68993567E+01	-5.59832290E+01	-5.69313454E+01	-5.72032746E+01	-5.71924304E+01	-5.67625534E+01	-5.66423908E+01	-5.65108818E+01	
-6.10000000E+01	-5.34680876E+01	-5.72715068E+01	-5.57789646E+01	-5.67900594E+01	-5.73302509E+01	-5.73879092E+01	-5.72178025E+01	-5.71698708E+01	-5.71141802E+01	
-6.00000000E+01	-5.31506675E+01	-5.64807502E+01	-5.50820156E+01	-5.59254648E+01	-5.65019589E+01	-5.65181767E+01	-5.64613892E+01	-5.64531210E+01	-5.64312553E+01	
-5.90000000E+01	-5.26504345E+01	-5.48770343E+01	-5.40186928E+01	-5.45881628E+01	-5.50243715E+01	-5.49452905E+01	-5.48356903E+01	-5.48183724E+01	-5.47767308E+01	
