Far field
"Plane Wave Phi"[deg]	"2Blades_SEP_lam4_Carbide [dBsm]"	"2Blades_SEP_lam10_Carbide [dBsm]"	"2Blades_SEP_lam20_Carbide [dBsm]"	"2Blades_SEP_lam40_Carbide [dBsm]"	"2Blades_SEP_lam80_Carbide [dBsm]"	"2Blades_SEP_lam60_Carbide [dBsm]"	"2Blades_SEP_lam16_Carbide [dBsm]"	"2Blades_SEP_lam32_Carbide [dBsm]"	
-1.80000000E+02	-4.77709833E+01	-4.65555462E+01	-4.54579038E+01	-4.43105592E+01	-4.37520173E+01	-4.38809651E+01	-4.61059068E+01	-4.44598083E+01	
-1.79000000E+02	-4.79896089E+01	-4.68928049E+01	-4.57588580E+01	-4.45098254E+01	-4.39279038E+01	-4.40576167E+01	-4.64254885E+01	-4.46778595E+01	
-1.78000000E+02	-4.82727088E+01	-4.72987771E+01	-4.61209226E+01	-4.47601915E+01	-4.41501888E+01	-4.42818333E+01	-4.68093715E+01	-4.49494311E+01	
-1.77000000E+02	-4.86233615E+01	-4.77798125E+01	-4.65496524E+01	-4.50635617E+01	-4.44200705E+01	-4.45547230E+01	-4.72621066E+01	-4.52740659E+01	
-1.76000000E+02	-4.90457584E+01	-4.83444128E+01	-4.70499693E+01	-4.54227712E+01	-4.47395679E+01	-4.48782427E+01	-4.77910771E+01	-4.56578303E+01	
-1.75000000E+02	-4.95454021E+01	-4.90037861E+01	-4.76307072E+01	-4.58418065E+01	-4.51108044E+01	-4.52547709E+01	-4.84049364E+01	-4.61052177E+01	
-1.74000000E+02	-5.01287094E+01	-4.97727113E+01	-4.83015147E+01	-4.63248590E+01	-4.55367203E+01	-4.56877082E+01	-4.91149715E+01	-4.66219518E+01	
-1.73000000E+02	-5.08035594E+01	-5.06712808E+01	-4.90750882E+01	-4.68784551E+01	-4.60211764E+01	-4.61814570E+01	-4.99368280E+01	-4.72134614E+01	
-1.72000000E+02	-5.15776141E+01	-5.17270136E+01	-4.99699775E+01	-4.75100421E+01	-4.65691059E+01	-4.67411490E+01	-5.08891936E+01	-4.78901860E+01	
-1.71000000E+02	-5.24583797E+01	-5.29795056E+01	-5.10085975E+01	-4.82296018E+01	-4.71864102E+01	-4.73734049E+01	-5.20001645E+01	-4.86648402E+01	
-1.70000000E+02	-5.34474110E+01	-5.44888732E+01	-5.22252961E+01	-4.90505283E+01	-4.78821178E+01	-4.80885261E+01	-5.33080632E+01	-4.95525651E+01	
-1.69000000E+02	-5.45324344E+01	-5.63515602E+01	-5.36698860E+01	-4.99905274E+01	-4.86663366E+01	-4.88974511E+01	-5.48711776E+01	-5.05781275E+01	
-1.68000000E+02	-5.56669055E+01	-5.87384305E+01	-5.54204978E+01	-5.10758702E+01	-4.95564879E+01	-4.98189458E+01	-5.67823307E+01	-5.17698611E+01	
-1.67000000E+02	-5.67344508E+01	-6.19903638E+01	-5.76143947E+01	-5.23440322E+01	-5.05748576E+01	-5.08774603E+01	-5.92095467E+01	-5.31768931E+01	
-1.66000000E+02	-5.75121595E+01	-6.68595119E+01	-6.05243176E+01	-5.38548421E+01	-5.17562778E+01	-5.21128937E+01	-6.24881802E+01	-5.48790689E+01	
-1.65000000E+02	-5.77235137E+01	-7.28432408E+01	-6.48431483E+01	-5.57068317E+01	-5.31573952E+01	-5.35860654E+01	-6.74418486E+01	-5.70083392E+01	
-1.64000000E+02	-5.72453495E+01	-6.80510264E+01	-7.34503819E+01	-5.80710720E+01	-5.48706708E+01	-5.53958586E+01	-7.50247684E+01	-5.98062042E+01	
-1.63000000E+02	-5.62360697E+01	-6.29869234E+01	-7.65209523E+01	-6.12584928E+01	-5.70526787E+01	-5.77148285E+01	-7.01576307E+01	-6.37115162E+01	
-1.62000000E+02	-5.49666617E+01	-5.96902786E+01	-6.60987585E+01	-6.55555478E+01	-5.99796332E+01	-6.08150028E+01	-6.44872152E+01	-6.82431512E+01	
-1.61000000E+02	-5.36352165E+01	-5.73021792E+01	-6.14933219E+01	-6.73803528E+01	-6.39161381E+01	-6.46542975E+01	-6.09735049E+01	-6.60651985E+01	
-1.60000000E+02	-5.23378341E+01	-5.54222403E+01	-5.84662478E+01	-6.29055490E+01	-6.61604567E+01	-6.52528465E+01	-5.84408939E+01	-6.11912458E+01	
-1.59000000E+02	-5.11093168E+01	-5.38475118E+01	-5.61587823E+01	-5.87425819E+01	-6.21850285E+01	-6.10569446E+01	-5.64177825E+01	-5.75694806E+01	
-1.58000000E+02	-4.99558444E+01	-5.24618516E+01	-5.42481698E+01	-5.56187246E+01	-5.79375197E+01	-5.71960744E+01	-5.46797713E+01	-5.48221423E+01	
-1.57000000E+02	-4.88740430E+01	-5.11951892E+01	-5.25755624E+01	-5.31537116E+01	-5.47064639E+01	-5.42123563E+01	-5.31118922E+01	-5.25946983E+01	
-1.56000000E+02	-4.78587929E+01	-5.00074224E+01	-5.10669957E+01	-5.11181902E+01	-5.21727058E+01	-5.18289958E+01	-5.16551456E+01	-5.07239395E+01	
-1.55000000E+02	-4.69067338E+01	-4.88778178E+01	-4.96812262E+01	-4.93860454E+01	-5.00995827E+01	-4.98579222E+01	-5.02849390E+01	-4.91091802E+01	
-1.54000000E+02	-4.60170723E+01	-4.78012143E+01	-4.84024216E+01	-4.78883287E+01	-4.83623875E+01	-4.81903445E+01	-4.89946823E+01	-4.76958021E+01	
-1.53000000E+02	-4.51920949E+01	-4.67814377E+01	-4.72262196E+01	-4.65833269E+01	-4.68852579E+01	-4.67652716E+01	-4.77904120E+01	-4.64488302E+01	
-1.52000000E+02	-4.44361516E+01	-4.58279930E+01	-4.61577499E+01	-4.54493190E+01	-4.56246948E+01	-4.55432479E+01	-4.66807567E+01	-4.53598698E+01	
-1.51000000E+02	-4.37554390E+01	-4.49532200E+01	-4.52010780E+01	-4.44724505E+01	-4.45553647E+01	-4.45038109E+01	-4.56774274E+01	-4.44139826E+01	
-1.50000000E+02	-4.31571486E+01	-4.41692381E+01	-4.43634884E+01	-4.36467641E+01	-4.36625262E+01	-4.36339686E+01	-4.47901936E+01	-4.36112065E+01	
-1.49000000E+02	-4.26489312E+01	-4.34877426E+01	-4.36525822E+01	-4.29701908E+01	-4.29372555E+01	-4.29273356E+01	-4.40278993E+01	-4.29492349E+01	
-1.48000000E+02	-4.22385001E+01	-4.29190108E+01	-4.30754695E+01	-4.24433880E+01	-4.23776581E+01	-4.23814714E+01	-4.33984739E+01	-4.24307260E+01	
-1.47000000E+02	-4.19332028E+01	-4.24720401E+01	-4.26392140E+01	-4.20696523E+01	-4.19836382E+01	-4.19980139E+01	-4.29086860E+01	-4.20619065E+01	
-1.46000000E+02	-4.17394363E+01	-4.21539514E+01	-4.23494071E+01	-4.18533158E+01	-4.17589372E+01	-4.17798927E+01	-4.25643440E+01	-4.18461934E+01	
-1.45000000E+02	-4.16616561E+01	-4.19699286E+01	-4.22114556E+01	-4.17990616E+01	-4.17070859E+01	-4.17318247E+01	-4.23692741E+01	-4.17873959E+01	
-1.44000000E+02	-4.17017611E+01	-4.19220573E+01	-4.22274005E+01	-4.19104081E+01	-4.18309761E+01	-4.18570753E+01	-4.23250272E+01	-4.18927216E+01	
-1.43000000E+02	-4.18569313E+01	-4.20072748E+01	-4.23940814E+01	-4.21860873E+01	-4.21314292E+01	-4.21553580E+01	-4.24285828E+01	-4.21561386E+01	
-1.42000000E+02	-4.21167347E+01	-4.22149494E+01	-4.27000776E+01	-4.26144357E+01	-4.25968590E+01	-4.26146368E+01	-4.26675503E+01	-4.25714695E+01	
-1.41000000E+02	-4.24604660E+01	-4.25218382E+01	-4.31138590E+01	-4.31618513E+01	-4.31917213E+01	-4.32002646E+01	-4.30155775E+01	-4.30997275E+01	
-1.40000000E+02	-4.28532639E+01	-4.28873990E+01	-4.35796182E+01	-4.37570562E+01	-4.38382900E+01	-4.38349554E+01	-4.34239628E+01	-4.36824525E+01	
-1.39000000E+02	-4.32469313E+01	-4.32524772E+01	-4.40089190E+01	-4.42793685E+01	-4.43952656E+01	-4.43814491E+01	-4.38192376E+01	-4.41977910E+01	
-1.38000000E+02	-4.35872365E+01	-4.35472871E+01	-4.42938236E+01	-4.45761070E+01	-4.46775501E+01	-4.46646783E+01	-4.41114459E+01	-4.45094054E+01	
-1.37000000E+02	-4.38319284E+01	-4.37145567E+01	-4.43552296E+01	-4.45403899E+01	-4.45635249E+01	-4.45671200E+01	-4.42291685E+01	-4.45125101E+01	
-1.36000000E+02	-4.39717531E+01	-4.37399532E+01	-4.41950447E+01	-4.41983789E+01	-4.40972828E+01	-4.41291000E+01	-4.41611428E+01	-4.42224729E+01	
-1.35000000E+02	-4.40392150E+01	-4.36645068E+01	-4.38988832E+01	-4.36904906E+01	-4.34581677E+01	-4.35207488E+01	-4.39676740E+01	-4.37680890E+01	
-1.34000000E+02	-4.40966711E+01	-4.35668559E+01	-4.35886509E+01	-4.31814895E+01	-4.28333442E+01	-4.29222791E+01	-4.37507919E+01	-4.33046857E+01	
-1.33000000E+02	-4.42147378E+01	-4.35329644E+01	-4.33730935E+01	-4.27940631E+01	-4.23500191E+01	-4.24613800E+01	-4.36119024E+01	-4.29550928E+01	
-1.32000000E+02	-4.44532233E+01	-4.36349085E+01	-4.33283927E+01	-4.26019987E+01	-4.20781010E+01	-4.22073212E+01	-4.36284177E+01	-4.27945285E+01	
-1.31000000E+02	-4.48523728E+01	-4.39239533E+01	-4.35016280E+01	-4.26436856E+01	-4.20524819E+01	-4.21961471E+01	-4.38522298E+01	-4.28654241E+01	
-1.30000000E+02	-4.54265053E+01	-4.44289605E+01	-4.39142876E+01	-4.29328348E+01	-4.22845882E+01	-4.24401759E+01	-4.43110078E+01	-4.31789638E+01	
-1.29000000E+02	-4.61545240E+01	-4.51539069E+01	-4.45634885E+01	-4.34607513E+01	-4.27678697E+01	-4.29298442E+01	-4.50060440E+01	-4.37306363E+01	
-1.28000000E+02	-4.69661076E+01	-4.60655097E+01	-4.54066280E+01	-4.41846785E+01	-4.34657836E+01	-4.36280411E+01	-4.59007360E+01	-4.44714815E+01	
-1.27000000E+02	-4.77276520E+01	-4.70671564E+01	-4.63403920E+01	-4.50029234E+01	-4.42883237E+01	-4.44409123E+01	-4.68883514E+01	-4.52965788E+01	
-1.26000000E+02	-4.82665988E+01	-4.79747511E+01	-4.71642713E+01	-4.57324271E+01	-4.50565312E+01	-4.51910749E+01	-4.77593730E+01	-4.60217629E+01	
-1.25000000E+02	-4.84612988E+01	-4.85513208E+01	-4.76310136E+01	-4.61384412E+01	-4.55261014E+01	-4.56388881E+01	-4.82482091E+01	-4.64172977E+01	
-1.24000000E+02	-4.83363638E+01	-4.86622337E+01	-4.76165038E+01	-4.60931707E+01	-4.55235651E+01	-4.56244854E+01	-4.82178709E+01	-4.63660125E+01	
-1.23000000E+02	-4.80378117E+01	-4.84032853E+01	-4.72387877E+01	-4.56884664E+01	-4.51126420E+01	-4.52191876E+01	-4.78050010E+01	-4.59697757E+01	
-1.22000000E+02	-4.77278606E+01	-4.80042797E+01	-4.67417999E+01	-4.51522843E+01	-4.45260033E+01	-4.46505153E+01	-4.72740130E+01	-4.54549153E+01	
-1.21000000E+02	-4.75251628E+01	-4.76654800E+01	-4.63239577E+01	-4.46821983E+01	-4.39830909E+01	-4.41309663E+01	-4.68325656E+01	-4.50136848E+01	
-1.20000000E+02	-4.75069387E+01	-4.75096512E+01	-4.60998852E+01	-4.43969899E+01	-4.36169073E+01	-4.37886094E+01	-4.65962960E+01	-4.47621015E+01	
-1.19000000E+02	-4.77301803E+01	-4.76042399E+01	-4.61276197E+01	-4.43562607E+01	-4.34902848E+01	-4.36853413E+01	-4.66218161E+01	-4.47568736E+01	
-1.18000000E+02	-4.82465302E+01	-4.79901643E+01	-4.64373110E+01	-4.45853952E+01	-4.36261488E+01	-4.38457050E+01	-4.69363280E+01	-4.50238450E+01	
-1.17000000E+02	-4.91006502E+01	-4.86847466E+01	-4.70346370E+01	-4.50900861E+01	-4.40241273E+01	-4.42691961E+01	-4.75426092E+01	-4.55739503E+01	
-1.16000000E+02	-5.02876175E+01	-4.96437499E+01	-4.78800280E+01	-4.58384217E+01	-4.46514038E+01	-4.49239878E+01	-4.83912709E+01	-4.63709788E+01	
-1.15000000E+02	-5.16108066E+01	-5.06534591E+01	-4.88189231E+01	-4.67293526E+01	-4.54237626E+01	-4.57234025E+01	-4.93019094E+01	-4.72995160E+01	
-1.14000000E+02	-5.24117510E+01	-5.11967386E+01	-4.94938142E+01	-4.75434103E+01	-4.61754466E+01	-4.64921895E+01	-4.98800958E+01	-4.81171101E+01	
-1.13000000E+02	-5.18970817E+01	-5.07572051E+01	-4.94743709E+01	-4.79589819E+01	-4.66760952E+01	-4.69827488E+01	-4.97043073E+01	-4.84482466E+01	
-1.12000000E+02	-5.03788578E+01	-4.95356710E+01	-4.87291148E+01	-4.77967044E+01	-4.67654590E+01	-4.70265720E+01	-4.88247147E+01	-4.81442634E+01	
-1.11000000E+02	-4.87475347E+01	-4.81565238E+01	-4.76790612E+01	-4.72234827E+01	-4.64980445E+01	-4.67007344E+01	-4.77043981E+01	-4.74335687E+01	
-1.10000000E+02	-4.74401595E+01	-4.70046723E+01	-4.67142662E+01	-4.65638123E+01	-4.60957069E+01	-4.62441579E+01	-4.67176680E+01	-4.66788143E+01	
-1.09000000E+02	-4.65492785E+01	-4.62012342E+01	-4.60195546E+01	-4.60457554E+01	-4.57572840E+01	-4.58673477E+01	-4.60206817E+01	-4.61068853E+01	
-1.08000000E+02	-4.60441832E+01	-4.57465695E+01	-4.56303533E+01	-4.57597366E+01	-4.55890496E+01	-4.56716232E+01	-4.56412770E+01	-4.57943361E+01	
-1.07000000E+02	-4.58542552E+01	-4.55910694E+01	-4.55218905E+01	-4.57056893E+01	-4.56056654E+01	-4.56711581E+01	-4.55446176E+01	-4.57271103E+01	
-1.06000000E+02	-4.58832760E+01	-4.56569953E+01	-4.56238568E+01	-4.58263889E+01	-4.57603115E+01	-4.58162519E+01	-4.56598025E+01	-4.58503650E+01	
-1.05000000E+02	-4.60139808E+01	-4.58410630E+01	-4.58393009E+01	-4.60269225E+01	-4.59640469E+01	-4.60164735E+01	-4.58877516E+01	-4.60634813E+01	
-1.04000000E+02	-4.61168761E+01	-4.60257207E+01	-4.60500985E+01	-4.61879057E+01	-4.61016226E+01	-4.61554582E+01	-4.61104102E+01	-4.62449928E+01	
-1.03000000E+02	-4.60774293E+01	-4.60979983E+01	-4.61468305E+01	-4.62016557E+01	-4.60676295E+01	-4.61277215E+01	-4.62144829E+01	-4.62822473E+01	
-1.02000000E+02	-4.58347752E+01	-4.59868262E+01	-4.60574843E+01	-4.60036833E+01	-4.58121237E+01	-4.58797280E+01	-4.61276825E+01	-4.61121024E+01	
-1.01000000E+02	-4.54074494E+01	-4.56917267E+01	-4.57793662E+01	-4.56137747E+01	-4.53651300E+01	-4.54408980E+01	-4.58515250E+01	-4.57439994E+01	
-1.00000000E+02	-4.48841441E+01	-4.52861886E+01	-4.53927431E+01	-4.51252692E+01	-4.48345970E+01	-4.49153788E+01	-4.54613676E+01	-4.52765719E+01	
-9.90000000E+01	-4.43906814E+01	-4.48916874E+01	-4.50177391E+01	-4.46739529E+01	-4.43597432E+01	-4.44423464E+01	-4.50842369E+01	-4.48386572E+01	
-9.80000000E+01	-4.40552095E+01	-4.46414596E+01	-4.47954803E+01	-4.44004989E+01	-4.40781444E+01	-4.41584105E+01	-4.48588135E+01	-4.45697833E+01	
-9.70000000E+01	-4.39912204E+01	-4.46605766E+01	-4.48542430E+01	-4.44269492E+01	-4.41045564E+01	-4.41821749E+01	-4.49157572E+01	-4.46002643E+01	
-9.60000000E+01	-4.42938133E+01	-4.50575203E+01	-4.53062054E+01	-4.48556195E+01	-4.45317156E+01	-4.46055473E+01	-4.53690138E+01	-4.50342959E+01	
-9.50000000E+01	-4.50430215E+01	-4.59251446E+01	-4.62381403E+01	-4.57524767E+01	-4.54053297E+01	-4.54808651E+01	-4.63130984E+01	-4.59400743E+01	
-9.40000000E+01	-4.62910441E+01	-4.73180402E+01	-4.76700846E+01	-4.70846489E+01	-4.66443430E+01	-4.67375608E+01	-4.77876197E+01	-4.73128632E+01	
-9.30000000E+01	-4.79993693E+01	-4.91317524E+01	-4.93330494E+01	-4.84816480E+01	-4.77904875E+01	-4.79382384E+01	-4.95838931E+01	-4.87850504E+01	
-9.20000000E+01	-4.98064296E+01	-5.07149904E+01	-5.02685275E+01	-4.89519730E+01	-4.79047860E+01	-4.81352693E+01	-5.07593634E+01	-4.93652344E+01	
-9.10000000E+01	-5.07574379E+01	-5.08338676E+01	-4.95306032E+01	-4.79454303E+01	-4.67357828E+01	-4.70124497E+01	-5.01674785E+01	-4.83977712E+01	
-9.00000000E+01	-5.02624534E+01	-4.95734589E+01	-4.79309061E+01	-4.63514406E+01	-4.51783274E+01	-4.54548933E+01	-4.85427985E+01	-4.67781812E+01	
-8.90000000E+01	-4.91239021E+01	-4.81430771E+01	-4.64876425E+01	-4.49865992E+01	-4.38876625E+01	-4.41523938E+01	-4.70394257E+01	-4.53809468E+01	
-8.80000000E+01	-4.80881110E+01	-4.70654544E+01	-4.54711687E+01	-4.40525103E+01	-4.30225659E+01	-4.32741911E+01	-4.59717229E+01	-4.44170175E+01	
-8.70000000E+01	-4.72686501E+01	-4.63077071E+01	-4.47973679E+01	-4.34812554E+01	-4.25265750E+01	-4.27622745E+01	-4.52470568E+01	-4.38142628E+01	
-8.60000000E+01	-4.64982372E+01	-4.56575184E+01	-4.42678879E+01	-4.31024624E+01	-4.22473019E+01	-4.24610725E+01	-4.46545041E+01	-4.33961266E+01	
-8.50000000E+01	-4.56217525E+01	-4.49168338E+01	-4.36828248E+01	-4.27182969E+01	-4.19940994E+01	-4.21757221E+01	-4.39977062E+01	-4.29587715E+01	
-8.40000000E+01	-4.46568280E+01	-4.40491299E+01	-4.29684118E+01	-4.22001428E+01	-4.16120952E+01	-4.17585702E+01	-4.32209958E+01	-4.23890536E+01	
-8.30000000E+01	-4.37629230E+01	-4.31848934E+01	-4.22079125E+01	-4.15649561E+01	-4.10782313E+01	-4.11971107E+01	-4.24246669E+01	-4.17240104E+01	
-8.20000000E+01	-4.31115360E+01	-4.24995148E+01	-4.15561437E+01	-4.09449851E+01	-4.05031503E+01	-4.06066130E+01	-4.17692950E+01	-4.10955418E+01	
-8.10000000E+01	-4.28212410E+01	-4.21249870E+01	-4.11505905E+01	-4.04848463E+01	-4.00331527E+01	-4.01352992E+01	-4.13861217E+01	-4.06526474E+01	
-8.00000000E+01	-4.29617616E+01	-4.21394805E+01	-4.10746362E+01	-4.02826588E+01	-3.97826143E+01	-3.98927641E+01	-4.13551314E+01	-4.04832634E+01	
-7.90000000E+01	-4.35735329E+01	-4.25872438E+01	-4.13719403E+01	-4.03924835E+01	-3.98154933E+01	-3.99394538E+01	-4.17214447E+01	-4.06410447E+01	
-7.80000000E+01	-4.46700468E+01	-4.34869625E+01	-4.20626586E+01	-4.08315800E+01	-4.01555996E+01	-4.02999874E+01	-4.25052788E+01	-4.11377668E+01	
-7.70000000E+01	-4.61799920E+01	-4.48067254E+01	-4.31311499E+01	-4.15880347E+01	-4.08004764E+01	-4.09666261E+01	-4.36915317E+01	-4.19572115E+01	
-7.60000000E+01	-4.77438805E+01	-4.63460265E+01	-4.44784417E+01	-4.26020131E+01	-4.17062925E+01	-4.18948600E+01	-4.51654250E+01	-4.30290455E+01	
-7.50000000E+01	-4.84513501E+01	-4.74832204E+01	-4.57928984E+01	-4.37183035E+01	-4.27612595E+01	-4.29637780E+01	-4.65371432E+01	-4.41638876E+01	
-7.40000000E+01	-4.76566279E+01	-4.73628951E+01	-4.64574764E+01	-4.46198613E+01	-4.37227497E+01	-4.39190992E+01	-4.70549047E+01	-4.49983543E+01	
-7.30000000E+01	-4.60600581E+01	-4.60894859E+01	-4.60235921E+01	-4.49010479E+01	-4.42284381E+01	-4.43863993E+01	-4.63416706E+01	-4.51237927E+01	
-7.20000000E+01	-4.44713577E+01	-4.45030180E+01	-4.48337482E+01	-4.44190503E+01	-4.40220163E+01	-4.41283566E+01	-4.49647103E+01	-4.44889580E+01	
-7.10000000E+01	-4.31561888E+01	-4.30776021E+01	-4.34812770E+01	-4.34503171E+01	-4.32275575E+01	-4.32991524E+01	-4.35463382E+01	-4.34451140E+01	
-7.00000000E+01	-4.21263071E+01	-4.19218540E+01	-4.22627868E+01	-4.23498949E+01	-4.21828481E+01	-4.22422532E+01	-4.23268158E+01	-4.23333796E+01	
-6.90000000E+01	-4.13315108E+01	-4.10197058E+01	-4.12535303E+01	-4.13238914E+01	-4.11420154E+01	-4.12039168E+01	-4.13427090E+01	-4.13308759E+01	
-6.80000000E+01	-4.07189354E+01	-4.03298167E+01	-4.04521190E+01	-4.04498990E+01	-4.02262326E+01	-4.02972503E+01	-4.05715140E+01	-4.04912297E+01	
-6.70000000E+01	-4.02470447E+01	-3.98154484E+01	-3.98354049E+01	-3.97471978E+01	-3.94784637E+01	-3.95590018E+01	-3.99830400E+01	-3.98222569E+01	
-6.60000000E+01	-3.98899962E+01	-3.94500325E+01	-3.93844712E+01	-3.92166737E+01	-3.89085586E+01	-3.89978340E+01	-3.95519436E+01	-3.93225494E+01	
-6.50000000E+01	-3.96348587E+01	-3.92178141E+01	-3.90851386E+01	-3.88543968E+01	-3.85172550E+01	-3.86129917E+01	-3.92631120E+01	-3.89805120E+01	
-6.40000000E+01	-3.94797962E+01	-3.91118104E+01	-3.89305653E+01	-3.86556023E+01	-3.83015954E+01	-3.84010642E+01	-3.91094252E+01	-3.87954868E+01	
-6.30000000E+01	-3.94286958E+01	-3.91297309E+01	-3.89172156E+01	-3.86183302E+01	-3.82579020E+01	-3.83588180E+01	-3.90878458E+01	-3.87661623E+01	
-6.20000000E+01	-3.94870063E+01	-3.92720859E+01	-3.90426473E+01	-3.87380680E+01	-3.83824386E+01	-3.84827489E+01	-3.91974775E+01	-3.88894120E+01	
-6.10000000E+01	-3.96579011E+01	-3.95382625E+01	-3.93038432E+01	-3.90100999E+01	-3.86681328E+01	-3.87657317E+01	-3.94363360E+01	-3.91554095E+01	
-6.00000000E+01	-3.99392982E+01	-3.99231371E+01	-3.96899648E+01	-3.94231824E+01	-3.91044087E+01	-3.91971123E+01	-3.97971378E+01	-3.95597260E+01	
-5.90000000E+01	-4.03219445E+01	-4.04152983E+01	-4.01868860E+01	-3.99585593E+01	-3.96719854E+01	-3.97573525E+01	-4.02661879E+01	-4.00795000E+01	
-5.80000000E+01	-4.07875510E+01	-4.09944373E+01	-4.07693842E+01	-4.05881591E+01	-4.03392559E+01	-4.04167249E+01	-4.08200916E+01	-4.06917709E+01	
-5.70000000E+01	-4.13081019E+01	-4.16286524E+01	-4.13989346E+01	-4.12686787E+01	-4.10635486E+01	-4.11305442E+01	-4.14232214E+01	-4.13507367E+01	
-5.60000000E+01	-4.18460542E+01	-4.22738402E+01	-4.20274679E+01	-4.19427055E+01	-4.17821580E+01	-4.18382872E+01	-4.20290824E+01	-4.20004636E+01	
-5.50000000E+01	-4.23557528E+01	-4.28752548E+01	-4.25940093E+01	-4.25404340E+01	-4.24190909E+01	-4.24654481E+01	-4.25809494E+01	-4.25774743E+01	
-5.40000000E+01	-4.27880961E+01	-4.33724058E+01	-4.30355401E+01	-4.29882792E+01	-4.28936739E+01	-4.29315295E+01	-4.30185470E+01	-4.30088845E+01	
-5.30000000E+01	-4.30969351E+01	-4.37089888E+01	-4.32997820E+01	-4.32251059E+01	-4.31382899E+01	-4.31713452E+01	-4.32908652E+01	-4.32371789E+01	
-5.20000000E+01	-4.32508824E+01	-4.38473034E+01	-4.33549584E+01	-4.32217438E+01	-4.31204202E+01	-4.31537618E+01	-4.33662002E+01	-4.32351922E+01	
-5.10000000E+01	-4.32405054E+01	-4.37792888E+01	-4.32048120E+01	-4.29897153E+01	-4.28556103E+01	-4.28934184E+01	-4.32435547E+01	-4.30120354E+01	
-5.00000000E+01	-4.30818910E+01	-4.35278121E+01	-4.28831354E+01	-4.25746458E+01	-4.23958657E+01	-4.24422926E+01	-4.29499602E+01	-4.26110926E+01	
-4.90000000E+01	-4.28099361E+01	-4.31381150E+01	-4.24412257E+01	-4.20395771E+01	-4.18129328E+01	-4.18690155E+01	-4.25326387E+01	-4.20949338E+01	
-4.80000000E+01	-4.24674488E+01	-4.26642487E+01	-4.19322339E+01	-4.14466156E+01	-4.11760990E+01	-4.12408929E+01	-4.20445919E+01	-4.15191382E+01	
-4.70000000E+01	-4.20950178E+01	-4.21566947E+01	-4.14072182E+01	-4.08493043E+01	-4.05385486E+01	-4.06123708E+01	-4.15331446E+01	-4.09378493E+01	
-4.60000000E+01	-4.17247042E+01	-4.16564591E+01	-4.09003933E+01	-4.02842180E+01	-3.99401290E+01	-4.00225382E+01	-4.10370077E+01	-4.03878515E+01	
